LTI @ KIT	PV cell J-V measurement		
Cell ID: 	ACD3_1_04_Cycle_2		
Cell area [cm^2]: 	0.078400		
Cell illuminated	1		
2021-10-14	13:58:16		
Jsc [mA/cm^2]:	-2.012255E+1	-1.980473E+1	
Voc [V]:	1.021169E+0	1.006363E+0	
Fill factor:	6.797768E+1	6.168432E+1	
Efficiency:	1.396841E+1	1.229414E+1	
Commentary:			
Hysteresis	1		
Voltage [V]	Current density [1] [mA/cm^2]	Current density [2] [mA/cm^2]	Average current density [mA/cm^2]
1.200000E+0	2.802902E+1	2.957890E+1	2.880396E+1
1.190000E+0	2.726457E+1	2.755900E+1	2.741178E+1
1.180000E+0	2.566253E+1	2.559351E+1	2.562802E+1
1.170000E+0	2.384155E+1	2.365383E+1	2.374769E+1
1.160000E+0	2.197225E+1	2.182063E+1	2.189644E+1
1.150000E+0	2.010365E+1	2.001179E+1	2.005772E+1
1.140000E+0	1.827062E+1	1.826373E+1	1.826718E+1
1.130000E+0	1.650484E+1	1.658396E+1	1.654440E+1
1.120000E+0	1.477130E+1	1.494922E+1	1.486026E+1
1.110000E+0	1.306156E+1	1.336999E+1	1.321578E+1
1.100000E+0	1.139889E+1	1.191273E+1	1.165581E+1
1.090000E+0	9.811213E+0	1.045808E+1	1.013464E+1
1.080000E+0	8.254292E+0	9.012970E+0	8.633631E+0
1.070000E+0	6.743533E+0	7.646152E+0	7.194842E+0
1.060000E+0	5.284366E+0	6.320975E+0	5.802670E+0
1.050000E+0	3.851161E+0	5.003247E+0	4.427204E+0
1.040000E+0	2.469707E+0	3.749588E+0	3.109647E+0
1.030000E+0	1.170209E+0	2.523844E+0	1.847026E+0
1.020000E+0	-1.548867E-1	1.317992E+0	5.815528E-1
1.010000E+0	-1.342977E+0	4.043336E-1	-4.693219E-1
1.000000E+0	-2.600490E+0	-7.073407E-1	-1.653915E+0
9.900000E-1	-3.777951E+0	-1.600292E+0	-2.689122E+0
9.800000E-1	-4.926966E+0	-2.617438E+0	-3.772202E+0
9.700000E-1	-6.043404E+0	-3.587143E+0	-4.815273E+0
9.600000E-1	-7.097268E+0	-4.547892E+0	-5.822580E+0
9.500000E-1	-8.120900E+0	-5.449080E+0	-6.784990E+0
9.400000E-1	-9.093941E+0	-6.333602E+0	-7.713771E+0
9.300000E-1	-1.000200E+1	-7.186786E+0	-8.594393E+0
9.200000E-1	-1.087120E+1	-8.001035E+0	-9.436115E+0
9.100000E-1	-1.168905E+1	-8.783573E+0	-1.023631E+1
9.000000E-1	-1.246910E+1	-9.546319E+0	-1.100771E+1
8.900000E-1	-1.316687E+1	-1.026027E+1	-1.171357E+1
8.800000E-1	-1.382661E+1	-1.094340E+1	-1.238500E+1
8.700000E-1	-1.441709E+1	-1.161680E+1	-1.301694E+1
8.600000E-1	-1.498410E+1	-1.223413E+1	-1.360911E+1
8.500000E-1	-1.550235E+1	-1.287725E+1	-1.418980E+1
8.400000E-1	-1.596445E+1	-1.315168E+1	-1.455807E+1
8.300000E-1	-1.638014E+1	-1.361913E+1	-1.499964E+1
8.200000E-1	-1.676060E+1	-1.407264E+1	-1.541662E+1
8.100000E-1	-1.710210E+1	-1.450007E+1	-1.580108E+1
8.000000E-1	-1.739236E+1	-1.487825E+1	-1.613530E+1
7.900000E-1	-1.767833E+1	-1.523675E+1	-1.645754E+1
7.800000E-1	-1.790822E+1	-1.557208E+1	-1.674015E+1
7.700000E-1	-1.810301E+1	-1.585713E+1	-1.698007E+1
7.600000E-1	-1.829080E+1	-1.612837E+1	-1.720958E+1
7.500000E-1	-1.846823E+1	-1.639219E+1	-1.743021E+1
7.400000E-1	-1.860159E+1	-1.660330E+1	-1.760244E+1
7.300000E-1	-1.870893E+1	-1.681565E+1	-1.776229E+1
7.200000E-1	-1.883857E+1	-1.700870E+1	-1.792364E+1
7.100000E-1	-1.892709E+1	-1.718577E+1	-1.805643E+1
7.000000E-1	-1.901215E+1	-1.733300E+1	-1.817257E+1
6.900000E-1	-1.909984E+1	-1.749247E+1	-1.829615E+1
6.800000E-1	-1.915660E+1	-1.761141E+1	-1.838401E+1
6.700000E-1	-1.922072E+1	-1.773561E+1	-1.847817E+1
6.600000E-1	-1.928011E+1	-1.785208E+1	-1.856610E+1
6.500000E-1	-1.931275E+1	-1.796177E+1	-1.863726E+1
6.400000E-1	-1.937386E+1	-1.805571E+1	-1.871478E+1
6.300000E-1	-1.941372E+1	-1.813156E+1	-1.877264E+1
6.200000E-1	-1.945435E+1	-1.822012E+1	-1.883724E+1
6.100000E-1	-1.948048E+1	-1.829220E+1	-1.888634E+1
6.000000E-1	-1.952593E+1	-1.835770E+1	-1.894182E+1
5.900000E-1	-1.954177E+1	-1.842558E+1	-1.898368E+1
5.800000E-1	-1.956540E+1	-1.846889E+1	-1.901715E+1
5.700000E-1	-1.959684E+1	-1.853181E+1	-1.906432E+1
5.600000E-1	-1.962588E+1	-1.859153E+1	-1.910871E+1
5.500000E-1	-1.964572E+1	-1.863756E+1	-1.914164E+1
5.400000E-1	-1.966729E+1	-1.868543E+1	-1.917636E+1
5.300000E-1	-1.968734E+1	-1.872425E+1	-1.920580E+1
5.200000E-1	-1.969484E+1	-1.875525E+1	-1.922504E+1
5.100000E-1	-1.971723E+1	-1.879974E+1	-1.925848E+1
5.000000E-1	-1.973219E+1	-1.883385E+1	-1.928302E+1
4.900000E-1	-1.972847E+1	-1.887744E+1	-1.930296E+1
4.800000E-1	-1.976581E+1	-1.890003E+1	-1.933292E+1
4.700000E-1	-1.979131E+1	-1.894099E+1	-1.936615E+1
4.600000E-1	-1.979461E+1	-1.896718E+1	-1.938090E+1
4.500000E-1	-1.981321E+1	-1.898680E+1	-1.940001E+1
4.400000E-1	-1.982692E+1	-1.902950E+1	-1.942821E+1
4.300000E-1	-1.983040E+1	-1.905683E+1	-1.944362E+1
4.200000E-1	-1.984154E+1	-1.906902E+1	-1.945528E+1
4.100000E-1	-1.985942E+1	-1.910506E+1	-1.948224E+1
4.000000E-1	-1.986230E+1	-1.913647E+1	-1.949939E+1
3.900000E-1	-1.987142E+1	-1.915184E+1	-1.951163E+1
3.800000E-1	-1.989284E+1	-1.917197E+1	-1.953240E+1
3.700000E-1	-1.989857E+1	-1.920347E+1	-1.955102E+1
3.600000E-1	-1.989529E+1	-1.921583E+1	-1.955556E+1
3.500000E-1	-1.991343E+1	-1.924129E+1	-1.957736E+1
3.400000E-1	-1.992179E+1	-1.926557E+1	-1.959368E+1
3.300000E-1	-1.992688E+1	-1.928890E+1	-1.960789E+1
3.200000E-1	-1.992833E+1	-1.930282E+1	-1.961557E+1
3.100000E-1	-1.994359E+1	-1.933634E+1	-1.963996E+1
3.000000E-1	-1.995784E+1	-1.934146E+1	-1.964965E+1
2.900000E-1	-1.995646E+1	-1.935946E+1	-1.965796E+1
2.800000E-1	-1.997244E+1	-1.938193E+1	-1.967719E+1
2.700000E-1	-1.997256E+1	-1.939498E+1	-1.968377E+1
2.600000E-1	-1.996477E+1	-1.941722E+1	-1.969100E+1
2.500000E-1	-1.997556E+1	-1.943484E+1	-1.970520E+1
2.400000E-1	-1.998860E+1	-1.944565E+1	-1.971713E+1
2.300000E-1	-1.999423E+1	-1.946374E+1	-1.972898E+1
2.200000E-1	-2.000255E+1	-1.948718E+1	-1.974486E+1
2.100000E-1	-2.000183E+1	-1.948622E+1	-1.974402E+1
2.000000E-1	-2.001045E+1	-1.951376E+1	-1.976210E+1
1.900000E-1	-2.001727E+1	-1.953388E+1	-1.977558E+1
1.800000E-1	-2.003415E+1	-1.955117E+1	-1.979266E+1
1.700000E-1	-2.002984E+1	-1.955431E+1	-1.979207E+1
1.600000E-1	-2.004295E+1	-1.957759E+1	-1.981027E+1
1.500000E-1	-2.004708E+1	-1.959119E+1	-1.981913E+1
1.400000E-1	-2.004450E+1	-1.959918E+1	-1.982184E+1
1.300000E-1	-2.005007E+1	-1.962061E+1	-1.983534E+1
1.200000E-1	-2.006276E+1	-1.963647E+1	-1.984961E+1
1.100000E-1	-2.006168E+1	-1.965001E+1	-1.985585E+1
1.000000E-1	-2.006857E+1	-1.967198E+1	-1.987027E+1
9.000000E-2	-2.008030E+1	-1.969238E+1	-1.988634E+1
8.000000E-2	-2.007120E+1	-1.969388E+1	-1.988254E+1
7.000000E-2	-2.008472E+1	-1.970339E+1	-1.989405E+1
6.000000E-2	-2.008455E+1	-1.972978E+1	-1.990716E+1
5.000000E-2	-2.009353E+1	-1.973936E+1	-1.991644E+1
4.000000E-2	-2.009795E+1	-1.975446E+1	-1.992621E+1
3.000000E-2	-2.010478E+1	-1.976475E+1	-1.993476E+1
2.000000E-2	-2.011507E+1	-1.977774E+1	-1.994641E+1
1.000000E-2	-2.012094E+1	-1.978281E+1	-1.995187E+1
0.000000E+0	-2.012255E+1	-1.980473E+1	-1.996364E+1
-1.000000E-2	-2.012255E+1	-1.981998E+1	-1.997127E+1
-2.000000E-2	-2.014123E+1	-1.983166E+1	-1.998645E+1
-3.000000E-2	-2.014111E+1	-1.984836E+1	-1.999474E+1
-4.000000E-2	-2.014901E+1	-1.986279E+1	-2.000590E+1
-5.000000E-2	-2.014883E+1	-1.987003E+1	-2.000943E+1
-6.000000E-2	-2.015176E+1	-1.989026E+1	-2.002101E+1
-7.000000E-2	-2.015799E+1	-1.991773E+1	-2.003786E+1
-8.000000E-2	-2.016798E+1	-1.992276E+1	-2.004537E+1
-9.000000E-2	-2.016296E+1	-1.994209E+1	-2.005252E+1
-1.000000E-1	-2.015859E+1	-1.996489E+1	-2.006174E+1
-1.100000E-1	-2.017193E+1	-1.997202E+1	-2.007198E+1
-1.200000E-1	-2.017726E+1	-1.999135E+1	-2.008431E+1
-1.300000E-1	-2.018152E+1	-2.001284E+1	-2.009718E+1
-1.400000E-1	-2.018193E+1	-2.003050E+1	-2.010621E+1
-1.500000E-1	-2.018456E+1	-2.004306E+1	-2.011381E+1
-1.600000E-1	-2.018271E+1	-2.006946E+1	-2.012609E+1
-1.700000E-1	-2.018900E+1	-2.008886E+1	-2.013893E+1
-1.800000E-1	-2.018756E+1	-2.010717E+1	-2.014736E+1
-1.900000E-1	-2.019594E+1	-2.014494E+1	-2.017044E+1
-2.000000E-1	-2.020462E+1	-2.018301E+1	-2.019381E+1
